SpectraSuite Datei
++++++++++++++++++++++++++++++++++++
Datum: Mon Feb 18 14:24:23 CET 2019
Benutzer: tu65fis
Dark-Spektrum vorhanden: Ja
Referenz-Spektrum vorhanden: Ja
Zahl der probierten Teilspektren: 1
Spektrometer: USB2G47534
Integrationszeit (usec): 10000 (USB2G47534)
Spektren Durchschnitt berechnet: 1 (USB2G47534)
Boxcar Glättung: 0 (USB2G47534)
Dunkelstromkorrektur: Nein (USB2G47534)
Puls/Lampe aktiviert: Nein (USB2G47534)
Correct for Detector Non-linearity: Nein (USB2G47534)
Streulichtkorrektur: Nein (USB2G47534)
Anzahl Pixel in verarbeitetem Spektrum: 651
>>>>>Begin Processed Spectral Data<<<<<
350,00	1,97
351,00	4,37
352,00	-7,66
353,00	-5,37
354,00	-1,79
355,00	-4,98
356,00	0,49
357,00	0,22
358,00	-2,39
359,00	0,68
360,00	-1,00
361,00	-2,85
362,00	1,00
363,00	4,98
364,00	6,33
365,00	-0,55
366,00	-2,25
367,00	3,15
368,00	4,48
369,00	0,10
370,00	-2,28
371,00	-2,99
372,00	0,69
373,00	-3,69
374,00	-4,95
375,00	-2,57
376,00	1,96
377,00	0,97
378,00	2,64
379,00	-1,02
380,00	2,27
381,00	-1,86
382,00	13,90
383,00	7,15
384,00	-0,62
385,00	-1,88
386,00	-3,56
387,00	-5,03
388,00	-0,91
389,00	-6,89
390,00	-4,13
391,00	1,62
392,00	-1,80
393,00	-3,00
394,00	-4,52
395,00	-0,16
396,00	-0,31
397,00	4,52
398,00	0,55
399,00	-0,70
400,00	0,35
401,00	6,88
402,00	-7,63
403,00	-2,30
404,00	-0,97
405,00	-1,14
406,00	-1,45
407,00	2,26
408,00	5,67
409,00	2,75
410,00	1,89
411,00	5,48
412,00	-2,11
413,00	4,66
414,00	2,14
415,00	0,52
416,00	4,52
417,00	-4,01
418,00	6,58
419,00	0,72
420,00	0,24
421,00	-3,65
422,00	-4,13
423,00	-2,72
424,00	14,09
425,00	-2,41
426,00	-4,65
427,00	-0,26
428,00	-5,20
429,00	4,21
430,00	4,65
431,00	2,13
432,00	0,78
433,00	-0,44
434,00	3,90
435,00	-0,47
436,00	2,43
437,00	3,49
438,00	-2,03
439,00	-0,44
440,00	2,92
441,00	5,12
442,00	1,79
443,00	4,84
444,00	4,44
445,00	-0,88
446,00	-5,75
447,00	4,01
448,00	0,62
449,00	2,49
450,00	4,27
451,00	-2,71
452,00	-1,88
453,00	-0,62
454,00	4,85
455,00	1,70
456,00	2,07
457,00	2,78
458,00	-0,47
459,00	-1,13
460,00	-0,03
461,00	0,00
462,00	3,50
463,00	-4,39
464,00	-0,73
465,00	3,87
466,00	6,38
467,00	-4,27
468,00	1,63
469,00	5,91
470,00	5,47
471,00	4,35
472,00	-3,45
473,00	-1,49
474,00	-1,29
475,00	-6,20
476,00	5,87
477,00	0,07
478,00	8,31
479,00	0,03
480,00	7,58
481,00	5,18
482,00	-0,04
483,00	0,49
484,00	-4,82
485,00	4,31
486,00	1,23
487,00	-1,09
488,00	3,27
489,00	-5,43
490,00	0,55
491,00	-2,11
492,00	2,17
493,00	-2,55
494,00	0,07
495,00	3,93
496,00	5,22
497,00	2,98
498,00	-1,43
499,00	5,69
500,00	0,51
501,00	4,98
502,00	5,31
503,00	-1,09
504,00	4,67
505,00	-0,02
506,00	-0,40
507,00	1,50
508,00	5,02
509,00	1,05
510,00	5,75
511,00	6,38
512,00	2,63
513,00	1,01
514,00	2,76
515,00	0,71
516,00	4,60
517,00	1,09
518,00	5,95
519,00	3,64
520,00	-2,70
521,00	3,09
522,00	2,65
523,00	-2,29
524,00	4,42
525,00	-0,02
526,00	1,57
527,00	-3,19
528,00	4,93
529,00	1,83
530,00	1,00
531,00	3,66
532,00	4,03
533,00	3,43
534,00	-1,48
535,00	6,59
536,00	0,14
537,00	2,29
538,00	1,73
539,00	4,85
540,00	5,17
541,00	4,03
542,00	-1,94
543,00	2,43
544,00	5,31
545,00	2,24
546,00	2,69
547,00	2,78
548,00	8,79
549,00	3,41
550,00	1,08
551,00	-0,00
552,00	-0,10
553,00	0,39
554,00	-0,15
555,00	5,74
556,00	-1,48
557,00	6,43
558,00	0,50
559,00	-1,42
560,00	-2,04
561,00	-0,76
562,00	1,63
563,00	4,97
564,00	1,30
565,00	-1,07
566,00	-2,48
567,00	2,47
568,00	2,86
569,00	9,08
570,00	8,61
571,00	4,39
572,00	8,92
573,00	6,76
574,00	2,50
575,00	2,70
576,00	13,25
577,00	7,98
578,00	11,76
579,00	10,75
580,00	9,89
581,00	16,23
582,00	23,99
583,00	24,28
584,00	28,12
585,00	44,69
586,00	58,00
587,00	59,54
588,00	69,44
589,00	97,26
590,00	114,97
591,00	149,26
592,00	183,55
593,00	219,81
594,00	265,92
595,00	324,73
596,00	385,44
597,00	461,02
598,00	550,15
599,00	633,48
600,00	749,29
601,00	863,57
602,00	983,65
603,00	1119,75
604,00	1252,08
605,00	1378,96
606,00	1500,46
607,00	1658,40
608,00	1786,66
609,00	1908,83
610,00	2025,93
611,00	2150,09
612,00	2239,08
613,00	2359,09
614,00	2463,35
615,00	2511,73
616,00	2587,03
617,00	2681,40
618,00	2710,97
619,00	2796,13
620,00	2810,50
621,00	2851,61
622,00	2924,51
623,00	2915,88
624,00	2963,45
625,00	3005,49
626,00	3026,91
627,00	3018,63
628,00	3064,86
629,00	3047,65
630,00	3070,99
631,00	3073,54
632,00	3081,97
633,00	3095,95
634,00	3100,09
635,00	3128,38
636,00	3126,85
637,00	3109,38
638,00	3107,66
639,00	3102,70
640,00	3080,96
641,00	3122,32
642,00	3127,37
643,00	3168,44
644,00	3129,53
645,00	3127,48
646,00	3137,35
647,00	3132,77
648,00	3166,50
649,00	3129,86
650,00	3154,04
651,00	3126,19
652,00	3129,56
653,00	3126,30
654,00	3148,21
655,00	3110,96
656,00	3144,07
657,00	3154,42
658,00	3122,36
659,00	3126,76
660,00	3134,43
661,00	3087,66
662,00	3096,67
663,00	3109,33
664,00	3124,07
665,00	3137,57
666,00	3092,88
667,00	3103,81
668,00	3071,30
669,00	3049,74
670,00	3083,39
671,00	3017,47
672,00	3019,82
673,00	3022,85
674,00	3036,54
675,00	3011,51
676,00	3007,97
677,00	2975,60
678,00	2957,48
679,00	2948,74
680,00	2909,74
681,00	2866,79
682,00	2876,11
683,00	2860,32
684,00	2849,17
685,00	2828,13
686,00	2815,32
687,00	2784,59
688,00	2777,95
689,00	2740,79
690,00	2723,13
691,00	2738,58
692,00	2726,11
693,00	2669,69
694,00	2722,91
695,00	2676,67
696,00	2645,97
697,00	2636,18
698,00	2667,36
699,00	2610,43
700,00	2598,49
701,00	2591,60
702,00	2577,04
703,00	2557,89
704,00	2549,23
705,00	2542,45
706,00	2522,55
707,00	2528,03
708,00	2515,96
709,00	2504,64
710,00	2484,91
711,00	2478,58
712,00	2482,05
713,00	2451,65
714,00	2477,44
715,00	2421,98
716,00	2469,67
717,00	2436,36
718,00	2435,41
719,00	2407,54
720,00	2369,98
721,00	2355,54
722,00	2365,41
723,00	2362,26
724,00	2366,59
725,00	2330,01
726,00	2301,77
727,00	2327,46
728,00	2319,33
729,00	2307,77
730,00	2288,94
731,00	2284,87
732,00	2271,86
733,00	2273,05
734,00	2230,28
735,00	2257,21
736,00	2204,22
737,00	2238,92
738,00	2205,09
739,00	2166,22
740,00	2171,13
741,00	2149,35
742,00	2137,05
743,00	2088,32
744,00	2090,71
745,00	2105,98
746,00	2057,43
747,00	2037,70
748,00	2048,39
749,00	2002,69
750,00	1994,30
751,00	1957,52
752,00	1950,16
753,00	1943,13
754,00	1915,68
755,00	1888,61
756,00	1930,34
757,00	1866,44
758,00	1859,06
759,00	1836,62
760,00	1782,96
761,00	1775,90
762,00	1774,26
763,00	1752,38
764,00	1731,87
765,00	1729,11
766,00	1697,71
767,00	1664,62
768,00	1645,22
769,00	1634,21
770,00	1621,88
771,00	1622,21
772,00	1595,42
773,00	1554,64
774,00	1541,33
775,00	1549,58
776,00	1523,78
777,00	1518,85
778,00	1503,90
779,00	1505,92
780,00	1501,71
781,00	1488,58
782,00	1516,96
783,00	1479,91
784,00	1504,24
785,00	1494,48
786,00	1513,31
787,00	1505,78
788,00	1492,96
789,00	1504,90
790,00	1497,85
791,00	1496,31
792,00	1500,53
793,00	1512,97
794,00	1455,67
795,00	1473,36
796,00	1475,44
797,00	1444,48
798,00	1418,35
799,00	1428,76
800,00	1423,33
801,00	1398,56
802,00	1375,39
803,00	1361,61
804,00	1353,82
805,00	1342,48
806,00	1327,63
807,00	1332,50
808,00	1326,45
809,00	1302,03
810,00	1284,78
811,00	1280,20
812,00	1268,36
813,00	1252,66
814,00	1230,23
815,00	1218,74
816,00	1216,36
817,00	1212,00
818,00	1179,73
819,00	1186,26
820,00	1174,05
821,00	1191,25
822,00	1175,98
823,00	1143,15
824,00	1143,31
825,00	1140,46
826,00	1145,09
827,00	1105,64
828,00	1096,81
829,00	1085,91
830,00	1085,94
831,00	1091,77
832,00	1075,30
833,00	1069,59
834,00	1054,11
835,00	1031,81
836,00	1041,19
837,00	1012,75
838,00	1018,24
839,00	992,35
840,00	987,01
841,00	1004,79
842,00	974,13
843,00	973,34
844,00	961,28
845,00	933,00
846,00	937,51
847,00	938,09
848,00	904,23
849,00	901,95
850,00	879,87
851,00	858,01
852,00	865,49
853,00	826,17
854,00	842,09
855,00	841,87
856,00	819,17
857,00	817,15
858,00	805,35
859,00	818,75
860,00	777,78
861,00	791,01
862,00	772,99
863,00	767,03
864,00	735,86
865,00	743,14
866,00	737,06
867,00	745,18
868,00	716,86
869,00	705,93
870,00	694,70
871,00	677,28
872,00	682,63
873,00	680,52
874,00	660,93
875,00	675,18
876,00	674,44
877,00	656,63
878,00	640,48
879,00	640,51
880,00	625,88
881,00	613,36
882,00	593,43
883,00	591,66
884,00	587,60
885,00	570,97
886,00	553,75
887,00	552,66
888,00	553,61
889,00	540,24
890,00	549,19
891,00	543,61
892,00	538,94
893,00	558,35
894,00	547,52
895,00	534,79
896,00	557,23
897,00	547,66
898,00	575,69
899,00	578,12
900,00	552,48
901,00	545,20
902,00	553,37
903,00	566,39
904,00	554,37
905,00	562,75
906,00	545,44
907,00	549,20
908,00	548,96
909,00	550,87
910,00	544,04
911,00	522,00
912,00	528,64
913,00	504,73
914,00	490,99
915,00	506,13
916,00	503,69
917,00	486,17
918,00	491,28
919,00	471,46
920,00	460,10
921,00	449,46
922,00	442,84
923,00	440,72
924,00	418,30
925,00	413,21
926,00	409,51
927,00	404,30
928,00	396,69
929,00	398,32
930,00	385,39
931,00	359,13
932,00	372,20
933,00	361,11
934,00	361,45
935,00	354,87
936,00	332,86
937,00	326,95
938,00	333,52
939,00	321,88
940,00	309,47
941,00	310,48
942,00	313,27
943,00	301,33
944,00	286,30
945,00	275,16
946,00	280,86
947,00	269,73
948,00	260,63
949,00	258,00
950,00	255,04
951,00	239,19
952,00	252,22
953,00	237,34
954,00	232,61
955,00	226,73
956,00	227,01
957,00	226,99
958,00	209,15
959,00	207,92
960,00	200,46
961,00	190,96
962,00	187,05
963,00	193,20
964,00	179,47
965,00	178,19
966,00	170,91
967,00	167,69
968,00	165,49
969,00	160,64
970,00	148,68
971,00	150,59
972,00	147,29
973,00	122,13
974,00	129,47
975,00	127,56
976,00	128,47
977,00	130,08
978,00	119,80
979,00	111,16
980,00	116,53
981,00	109,02
982,00	104,17
983,00	105,89
984,00	92,05
985,00	94,72
986,00	82,57
987,00	79,67
988,00	83,83
989,00	67,91
990,00	68,53
991,00	77,97
992,00	71,07
993,00	62,65
994,00	54,53
995,00	61,20
996,00	64,92
997,00	53,75
998,00	52,92
999,00	48,48
1000,00	51,91
>>>>>End Processed Spectral Data<<<<<
